id,total_articles_read
4561,1698.716853924893
4562,1610.1180847736332
4563,1503.8176302987692
4564,1439.576161936928
4565,1354.3453103478887
4566,1314.542459158556
4567,1311.8737650265507
4568,1331.915394811837
4569,1362.3721509712655
4570,1414.735315695699
4571,1505.1275703762824
4572,1602.4652683141328
4573,1672.7072833217317
4574,1762.6844672094726
4575,1896.4084398855175
4576,1920.6698050148689
4577,1984.9251519293211
4578,2045.3013263988698
4579,2072.9161485404084
4580,2029.5065093561493
4581,1988.4510542047187
4582,1963.1479218164932
4583,1872.9016573535582
4584,1774.2576666180064
4585,1697.0702184532042
4586,1579.9352430231124
4587,1486.036713856684
4588,1420.6921431853962
4589,1364.5992450914327
4590,1339.240824030522
4591,1312.3938715089541
4592,1335.5836183316837
4593,1361.7219960969076
4594,1406.1292652361512
4595,1482.7515897555304
4596,1599.7083293780677
4597,1654.26132396617
4598,1751.666880372622
4599,1859.2444772564618
4600,1954.9025341423862
4601,1978.2030359895289
4602,2006.0086098136667
4603,2064.5536047033916
4604,2013.9264713255318
4605,1976.5168905444132
4606,1941.6277033895087
4607,1859.998531229176
4608,1757.4288430189608
4609,1669.8999725770227
4610,1587.370764506289
4611,1511.7411510562458
4612,1420.7463626143458
4613,1375.4753062051236
4614,1316.0786237897366
4615,1298.9566548056964
4616,1318.9278307448108
4617,1366.5347899690903
4618,1407.711469322264
4619,1477.45143059196
4620,1578.433739950235
4621,1682.9336210309232
4622,1746.4168023807918
4623,1825.195061344065
4624,1945.4964575945385
4625,1951.445997788378
4626,1991.7074496843288
4627,2027.8076865798157
4628,2026.1647387093658
4629,1963.7725338169885
4630,1906.1230013426105
4631,1860.4326762401472
4632,1768.9759575339526
4633,1665.413922936205
4634,1590.29960066074
4635,1481.1412127278843
4636,1403.6960447533559
4637,1357.9023293618038
4638,1325.568081429839
4639,1318.9458755065361
4640,1318.3969439956873
4641,1364.443672030656
4642,1415.3748490847613
4643,1470.0767331573754
4644,1553.1058667281068
4645,1677.9996136573266
4646,1724.1212175811204
4647,1812.8397560949095
4648,1906.7110121524297
4649,1981.7935456620637
4650,1983.569211565415
4651,1988.7223790496007
4652,2019.7271169377177
4653,1954.915092239787
4654,1896.0140528511479
4655,1845.4907009406083
4656,1749.8771184776422
4657,1648.1539418284449
4658,1565.95239468312
4659,1489.6914040296913
4660,1429.6682909385283
4661,1358.246648118783
4662,1334.6205952394337
4663,1302.7770341912021
4664,1306.5241342684421
4665,1346.123050709476
4666,1417.760053190777
4667,1464.9591848724733
4668,1545.944037472688
4669,1651.20561690131
4670,1755.3558496836893
4671,1807.2675629260661
4672,1870.7355151064296
4673,1972.4858645090133
4674,1959.905875452853
4675,1975.0019961772546
4676,1987.571014482176
4677,1958.898639727041
4678,1881.8359845779898
4679,1812.6106574330786
4680,1752.7045827251936
4681,1664.8138766473114
4682,1563.0932030865035
4683,1495.7651681078653
4684,1400.79689708394
4685,1342.3010279561208
4686,1317.614060784948
4687,1310.898654801155
4688,1320.7563134666218
4689,1344.1018582558836
4690,1409.4746020502366
4691,1479.872503774534
4692,1539.3714030738088
4693,1622.9830757768818
4694,1748.7982382035211
4695,1782.9435283444116
4696,1857.6146386395553
4697,1933.8115157376442
4698,1984.845878624495
4699,1965.4062957355886
4700,1949.4202667091522
4701,1954.6079165709057
4702,1879.642996892972
4703,1804.2933374121144
4704,1743.7903633244255
4705,1641.3014349334637
4706,1545.7438859365595
4707,1473.7916123369614
4708,1409.887446081899
4709,1366.92338421165
4710,1317.8673000109825
4711,1316.7848518380604
4712,1312.2199003054254
4713,1333.7585045028763
4714,1389.0197224451674
4715,1479.8221487038254
4716,1528.295165385525
4717,1614.027936993406
4718,1717.6342720095877
4719,1814.6038152482038
4720,1851.3047064924967
4721,1896.577137461701
4722,1976.28842463189
4723,1946.1964543710671
4724,1936.776466712065
4725,1927.8597753239815
4726,1875.8816965520427
4727,1789.0212355756094
4728,1713.6739010754936
4729,1646.1187680579505
4730,1565.950817748268
4731,1472.0893410895148
4732,1417.4724164850477
4733,1341.5880781382327
4734,1303.1748210361518
4735,1299.597228253718
4736,1318.6100176944287
4737,1341.822824158134
4738,1385.401192347654
4739,1465.4464004771507
4740,1549.0679365449994
4741,1607.9299137295534
4742,1686.7793681683318
4743,1806.937426382651
4744,1826.5865422210884
4745,1883.0740065939651
4746,1939.2156015733924
4747,1964.6159315498853
4748,1925.663468095497
4749,1891.232673777025
4750,1873.9010059775524
4751,1793.1795192754369
4752,1707.1880107176387
4753,1642.4328674104643
4754,1540.0088616398248
4755,1455.0830273639688
4756,1397.3255024836885
4757,1350.5611431671064
4758,1324.8775551259948
4759,1299.2345140624411
4760,1320.2010725375264
4761,1340.9641441352742
4762,1376.3497645274642
4763,1442.5415543782717
4764,1546.8209271487326
4765,1592.120485217649
4766,1676.3814302302317
4767,1772.836309724437
4768,1856.7228322209487
4769,1875.792599206507
4770,1901.4387119875255
4771,1957.2764314222964
4772,1911.724242190147
4773,1879.8888421828935
4774,1852.8808344969448
4775,1782.5956128439323
4776,1691.1078001323563
4777,1615.0114075167537
4778,1546.3973875467996
4779,1477.307440318446
4780,1396.4299231091059
4781,1358.1346263148002
4782,1304.564792111837
4783,1285.9456017638524
4784,1302.1718043566416
4785,1345.3199766682776
4786,1378.1260987826151
4787,1437.1781131551368
4788,1526.7643493731514
4789,1617.0469076843008
4790,1670.3346781963965
4791,1739.7439367924133
4792,1848.5700536909192
4793,1852.3475621754692
4794,1888.07753968901
4795,1923.1538453014361
4796,1923.059032981129
4797,1867.3880331914766
4798,1818.2392091785612
4799,1782.8538996332877
4800,1700.7906007118804
4801,1610.135655019394
4802,1546.791346384041
4803,1450.883337915345
4804,1380.0602157098406
4805,1339.1758744207566
4806,1312.890414819124
4807,1303.590902280416
4808,1300.882642151489
4809,1341.9213138281339
4810,1384.53078534494
4811,1429.1959990612347
4812,1501.2912669546372
4813,1612.8986015403702
4814,1651.1107887497674
4815,1728.1909657258466
4816,1812.9763884315082
4817,1879.2209681340996
4818,1879.5948061658612
4819,1885.5162153223127
4820,1917.3548411483127
4821,1859.246729055903
4822,1808.4413523820126
4823,1767.5522834160674
4824,1684.7116031404173
4825,1593.6370859430333
4826,1521.8416105640736
4827,1458.2936131561348
4828,1402.6515705057896
4829,1338.5929544163248
4830,1318.9854804406045
4831,1289.3141032242863
4832,1288.9748650999572
4833,1322.4816370357903
4834,1386.763234091127
4835,1425.0833359324718
4836,1494.2732097189682
4837,1587.965307892129
4838,1678.3815697282391
4839,1721.8692991058676
4840,1778.168207414765
4841,1871.1309129529236
4842,1858.7797179024212
4843,1872.6623596041252
4844,1887.179833617213
4845,1863.4012679598227
4846,1794.6966345681549
4847,1735.1820460038107
4848,1687.0533115456876
4849,1607.820832442453
4850,1518.3728165778534
4851,1461.499077032164
4852,1377.6045618200876
4853,1323.152332909525
4854,1300.5606773072009
4855,1296.4925821298532
4856,1301.6821128695672
4857,1319.9384486707434
4858,1378.002899556292
4859,1437.870921199196
4860,1487.0259117252315
4861,1559.9691942397174
4862,1672.777453015552
4863,1700.756920889182
4864,1765.8970422763432
4865,1835.5250582244812
4866,1881.0238654550658
4867,1862.9012551492656
4868,1850.3126525705516
4869,1859.5639462351555
4870,1792.3810496542708
4871,1726.9646886685412
4872,1677.0440328371442
4873,1587.7995645951817
4874,1501.7873405024875
4875,1438.6450744522867
4876,1385.5097403039608
4877,1344.644885036794
4878,1299.9033091513909
4879,1299.8971945004557
4880,1294.0132801471664
4881,1309.3550728427
4882,1356.728817518928
4883,1437.9903557183618
4884,1477.6942842789772
4885,1551.4011156697732
4886,1643.9795480462426
4887,1728.52580419977
4888,1758.966167017308
4889,1799.5836810143621
4890,1873.5419435572298
4891,1845.873905717144
4892,1838.3526937250622
4893,1834.0453956644783
4894,1789.7543005323987
4895,1712.2380396211845
4896,1647.071773274904
